[loci]=45

[populations]=7

[pop]=1
1  8480  2   0  8480
2  9802  3   0  1  9801
3  8507  2   0  8507
4  8505  2   0  8505
5  8506  6   0  0  6  0  41  8459
6  8512  2   4  8508
7  7295  2   0  7295
8  9802  2   0  9802
9  8499  2   0  8499
10  8516  3   0  0  8516
11  8499  4   1  0  0  8498
12  7524  2   0  7524
13  9802  3   0  0  9802
14  9802  3   0  2  9800
15  8515  3   0  0  8515
16  7692  2   1  7691
17  9802  3   0  0  9802
18  8503  4   0  0  0  8503
19  8512  4   139  0  0  8373
20  9802  5   0  0  0  61  9741
21  9802  3   0  0  9802
22  8504  7   1  0  24  1  0  0  8478
23  8514  3   1  1  8512
24  8516  2   33  8483
25  9802  4   0  0  0  9802
26  9803  3   0  0  9803
27  8512  2   57  8455
28  8508  3   0  1  8507
29  9802  2   3  9799
30  8510  5   0  0  3927  0  4583
31  8516  2   0  8516
32  8513  2   14  8499
33  8513  3   0  0  8513
34  8516  3   0  8  8508
35  8416  3   36  148  8232
36  9802  4   1  2  0  9799
37  9804  2   0  9804
38  8513  2   0  8513
39  8510  3   54  0  8456
40  9802  3   0  0  9802
41  8441  2   225  8216
42  9802  2   0  9802
43  8513  2   0  8513
44  8515  3   1  0  8514
45  8445  2   0  8445

[pop]=2
1  9302  2   0  9302
2  11575  3   0  0  11575
3  9322  2   0  9322
4  9322  2   0  9322
5  9324  6   1  0  2  0  2  9319
6  9324  2   13  9311
7  9099  2   0  9099
8  11576  2   0  11576
9  9324  2   0  9324
10  9324  3   0  0  9324
11  9324  4   0  0  0  9324
12  9174  2   0  9174
13  11576  3   0  0  11576
14  11576  3   0  3  11573
15  9323  3   0  1  9322
16  9197  2   6  9191
17  11576  3   0  0  11576
18  9324  4   0  0  1  9323
19  9323  4   4  0  0  9319
20  11576  5   0  0  0  4  11572
21  11576  3   0  1  11575
22  9324  7   12  1  1  3  9  0  9298
23  9322  3   0  0  9322
24  9324  2   2  9322
25  11576  4   0  0  0  11576
26  11576  3   0  0  11576
27  9323  2   3  9320
28  9324  3   0  0  9324
29  11576  2   0  11576
30  9321  5   0  1  5911  0  3409
31  9324  2   0  9324
32  9324  2   2  9322
33  9320  3   0  0  9320
34  9324  3   0  0  9324
35  9262  3   103  326  8833
36  11576  4   0  0  0  11576
37  11576  2   0  11576
38  9324  2   7  9317
39  9319  3   3  0  9316
40  11576  3   0  0  11576
41  9272  2   5  9267
42  11576  2   2  11574
43  9319  2   0  9319
44  9324  3   0  0  9324
45  9273  2   0  9273

[pop]=3
1  6620  2   0  6620
2  8624  3   0  0  8624
3  6636  2   0  6636
4  6638  2   6  6632
5  6638  6   0  0  0  0  1  6637
6  6638  2   0  6638
7  6305  2   0  6305
8  8624  2   7  8617
9  6638  2   6  6632
10  6638  3   0  0  6638
11  6638  4   0  0  0  6638
12  6407  2   0  6407
13  8626  3   1  0  8625
14  8626  3   0  0  8626
15  6636  3   0  0  6636
16  6439  2   0  6439
17  8626  3   0  0  8626
18  6638  4   0  4  0  6634
19  6636  4   2  0  0  6634
20  8626  5   38  0  1  0  8587
21  8626  3   0  0  8626
22  6638  7   0  0  0  2  0  0  6636
23  6636  3   0  0  6636
24  6638  2   0  6638
25  8626  4   0  1  0  8625
26  8626  3   0  0  8626
27  6636  2   0  6636
28  6638  3   0  0  6638
29  8626  2   0  8626
30  6634  5   38  0  4023  0  2573
31  6638  2   0  6638
32  6638  2   0  6638
33  6636  3   0  0  6636
34  6638  3   0  0  6638
35  6553  3   0  218  6335
36  8626  4   0  1  1  8624
37  8626  2   6  8620
38  6638  2   1  6637
39  6636  3   2  2  6632
40  8626  3   0  0  8626
41  6557  2   0  6557
42  8628  2   0  8628
43  6636  2   3  6633
44  6637  3   0  0  6637
45  6556  2   0  6556

[pop]=4
1  4530  2   1  4529
2  6614  3   2  0  6612
3  4530  2   0  4530
4  4530  2   0  4530
5  4530  6   0  0  0  0  0  4530
6  4530  2   10  4520
7  4484  2   0  4484
8  6614  2   0  6614
9  4530  2   0  4530
10  4530  3   0  0  4530
11  4530  4   0  0  0  4530
12  4503  2   0  4503
13  6614  3   0  0  6614
14  6614  3   0  0  6614
15  4530  3   0  0  4530
16  4505  2   1  4504
17  6614  3   0  0  6614
18  4530  4   0  0  0  4530
19  4530  4   0  0  0  4530
20  6614  5   0  0  0  0  6614
21  6614  3   0  0  6614
22  4530  7   0  0  0  0  0  0  4530
23  4530  3   0  0  4530
24  4530  2   0  4530
25  6614  4   0  0  0  6614
26  6614  3   0  0  6614
27  4530  2   0  4530
28  4530  3   4  0  4526
29  6614  2   0  6614
30  4528  5   0  0  2438  0  2090
31  4530  2   0  4530
32  4530  2   0  4530
33  4530  3   0  0  4530
34  4530  3   0  0  4530
35  4502  3   67  702  3733
36  6614  4   0  0  0  6614
37  6614  2   0  6614
38  4530  2   0  4530
39  4530  3   5  0  4525
40  6614  3   0  0  6614
41  4515  2   0  4515
42  6614  2   0  6614
43  4530  2   0  4530
44  4530  3   0  1  4529
45  4516  2   0  4516

[pop]=5
1  47241  2   2  47239
2  66736  3   1  0  66735
3  47935  2   0  47935
4  47983  2   0  47983
5  47986  6   0  1  0  2  1  47982
6  47989  2   344  47645
7  44273  2   5  44268
8  66740  2   0  66740
9  47957  2   0  47957
10  47992  3   0  0  47992
11  47960  4   0  0  2  47958
12  45182  2   1  45181
13  66740  3   0  4  66736
14  66740  3   1  157  66582
15  47962  3   0  0  47962
16  45586  2   45  45541
17  66740  3   0  2  66738
18  47968  4   0  0  3  47965
19  47963  4   2  0  0  47961
20  66740  5   0  0  2  3  66735
21  66740  3   1  4  66735
22  47970  7   5  0  0  17  0  0  47948
23  47964  3   2  2  47960
24  47993  2   0  47993
25  66740  4   1  0  1  66738
26  66738  3   1  2  66735
27  47957  2   0  47957
28  47978  3   7  0  47971
29  66740  2   0  66740
30  47972  5   3  0  22546  1  25422
31  47993  2   0  47993
32  47977  2   0  47977
33  47931  3   0  1  47930
34  47992  3   1  0  47991
35  46795  3   1419  6476  38900
36  66740  4   0  0  5  66735
37  66740  2   0  66740
38  47977  2   0  47977
39  47921  3   3  0  47918
40  66738  3   1  1  66736
41  47017  2   1  47016
42  66740  2   0  66740
43  47905  2   0  47905
44  47974  3   20  0  47954
45  47032  2   0  47032

[pop]=6
1  600  2   0  600
2  898  3   0  0  898
3  629  2   0  629
4  633  2   0  633
5  633  6   0  0  0  0  0  633
6  633  2   7  626
7  577  2   0  577
8  900  2   0  900
9  631  2   0  631
10  633  3   0  0  633
11  632  4   0  0  0  632
12  586  2   0  586
13  900  3   0  0  900
14  900  3   0  2  898
15  631  3   1  0  630
16  588  2   1  587
17  900  3   0  0  900
18  632  4   0  0  0  632
19  631  4   1  0  0  630
20  900  5   0  0  0  2  898
21  900  3   0  0  900
22  632  7   0  0  1  0  0  0  631
23  631  3   0  0  631
24  633  2   0  633
25  900  4   0  0  0  900
26  900  3   0  0  900
27  632  2   0  632
28  632  3   0  0  632
29  900  2   0  900
30  632  5   0  0  285  0  347
31  633  2   0  633
32  632  2   0  632
33  630  3   0  0  630
34  633  3   0  0  633
35  602  3   15  65  522
36  899  4   0  0  0  899
37  900  2   0  900
38  632  2   0  632
39  626  3   0  0  626
40  900  3   0  0  900
41  603  2   1  602
42  900  2   0  900
43  626  2   0  626
44  631  3   0  0  631
45  603  2   0  603

[pop]=7
1  7558  2   0  7558
2  16510  3   0  0  16510
3  9881  2   2  9879
4  10114  2   0  10114
5  10114  6   0  0  1  0  0  10113
6  10117  2   20  10097
7  7208  2   0  7208
8  16510  2   0  16510
9  10110  2   0  10110
10  10122  3   1  1  10120
11  10112  4   0  1  0  10111
12  7524  2   103  7421
13  16510  3   0  0  16510
14  16512  3   0  0  16512
15  9995  3   11  0  9984
16  7628  2   67  7561
17  16510  3   3  0  16507
18  10112  4   1  0  0  10111
19  10003  4   0  1  1  10001
20  16510  5   2  1  0  0  16507
21  16512  3   0  0  16512
22  10112  7   0  0  1  6  0  1  10104
23  10002  3   0  0  10002
24  10121  2   0  10121
25  16510  4   0  0  0  16510
26  16512  3   0  0  16512
27  9995  2   0  9995
28  10114  3   0  0  10114
29  16510  2   0  16510
30  10112  5   0  0  4942  0  5170
31  10122  2   2  10120
32  10113  2   0  10113
33  9882  3   1  0  9881
34  10122  3   0  0  10122
35  7848  3   179  527  7142
36  16510  4   0  0  1  16509
37  16512  2   0  16512
38  10113  2   0  10113
39  9795  3   0  0  9795
40  16510  3   0  0  16510
41  7870  2   0  7870
42  16508  2   0  16508
43  9687  2   0  9687
44  10091  3   0  0  10091
45  7903  2   9  7894

